"Time (s)","X (rad/s)","Y (rad/s)","Z (rad/s)"
1.093641667E-2,-2.773294449E-1,-1.294553757E0,2.305767089E-1
2.095441667E-2,-3.737011254E-1,-1.263012171E0,2.158632874E-1
3.097241667E-2,-4.275462329E-1,-1.171670079E0,1.526392996E-1
4.099041667E-2,-4.551840425E-1,-1.048882127E0,5.483377352E-2
5.100841667E-2,-4.644457102E-1,-9.285776019E-1,-3.943440318E-2
6.102641668E-2,-4.608601630E-1,-8.613789678E-1,-8.644744754E-2
7.104441668E-2,-4.316466153E-1,-8.514890671E-1,-8.049288392E-2
8.106241668E-2,-3.696101606E-1,-8.766893148E-1,-2.272801846E-2
9.108041668E-2,-2.818161249E-1,-9.170151949E-1,5.250601843E-2
1.010994167E-1,-1.585052460E-1,-9.593744874E-1,1.207173020E-1
1.111174167E-1,-1.300823502E-2,-9.704327583E-1,1.609374285E-1
1.211354167E-1,1.085932702E-1,-9.226132631E-1,1.715592444E-1
1.311534167E-1,1.748165041E-1,-8.636287451E-1,1.690497398E-1
1.411714167E-1,1.542358398E-1,-7.861145139E-1,1.471635699E-1
1.511894167E-1,8.828718960E-2,-6.921456456E-1,1.211540699E-1
1.612074167E-1,2.470844658E-3,-5.909246802E-1,9.644541144E-2
1.712254167E-1,-7.186943293E-2,-4.994967580E-1,6.391916424E-2
1.812434167E-1,-1.289708316E-1,-4.164512455E-1,4.806680977E-2
1.912614167E-1,-1.617631316E-1,-3.335981965E-1,3.740058467E-2
2.012794167E-1,-1.664844453E-1,-2.629550993E-1,2.730030566E-2
2.112974167E-1,-1.497131884E-1,-2.382516116E-1,1.777284779E-2
2.213154167E-1,-1.209097058E-1,-2.430757433E-1,2.453804947E-2
2.313334167E-1,-7.603650540E-2,-2.536080182E-1,4.448006675E-2
2.413514167E-1,-2.441462316E-2,-2.493274808E-1,6.622665375E-2
2.513694167E-1,1.626942307E-2,-2.335469127E-1,7.189571857E-2
2.613874167E-1,2.947643213E-2,-2.309948057E-1,5.749559030E-2
2.714054167E-1,2.496903203E-2,-2.256429195E-1,3.172551095E-2
2.814234167E-1,-2.355451696E-3,-2.121572793E-1,6.678235717E-3
2.914424167E-1,-4.221285507E-2,-1.943772137E-1,-1.049489249E-2
3.014604167E-1,-8.520931751E-2,-1.550428569E-1,-2.286420949E-2
3.114784167E-1,-1.239449978E-1,-1.018352956E-1,-2.456037700E-2
3.214964167E-1,-1.535161138E-1,-4.857896641E-2,-2.849294432E-2
3.315144167E-1,-1.706908494E-1,5.209432915E-3,-3.622676432E-2
3.415324167E-1,-1.592844874E-1,4.322761297E-2,-4.613240436E-2
3.515504167E-1,-1.150413901E-1,4.846258834E-2,-5.131624639E-2
3.615684167E-1,-4.795924574E-2,1.034446806E-2,-4.533182457E-2
3.715864167E-1,2.605585754E-2,-5.832860246E-2,-1.967200451E-2
3.816044167E-1,8.607298136E-2,-1.488135010E-1,4.164465237E-3
3.916224167E-1,1.200884730E-1,-2.121722251E-1,1.329271682E-2
4.016404167E-1,1.277274489E-1,-2.168007642E-1,1.134702284E-2
4.116584167E-1,1.110267714E-1,-1.957138479E-1,5.509107839E-3
4.216764167E-1,6.421350688E-2,-1.490560025E-1,-6.905081682E-3
4.316944167E-1,5.131817423E-3,-9.605695307E-2,-2.135805599E-2
4.417124167E-1,-5.229157582E-2,-5.543173850E-2,-3.124134615E-2
4.517304167E-1,-8.987623453E-2,-2.804805338E-2,-3.991286084E-2
4.617484167E-1,-9.780625999E-2,-3.379373252E-2,-4.108900204E-2
4.717674167E-1,-8.490431309E-2,-5.795685947E-2,-4.212737083E-2
4.817854167E-1,-5.342429876E-2,-8.353786916E-2,-3.917012736E-2
4.918034167E-1,-2.937861905E-2,-1.062208116E-1,-3.796344995E-2
5.018214167E-1,-1.101502031E-2,-1.264716238E-1,-4.047195613E-2
5.118394167E-1,-1.779444516E-3,-1.565182060E-1,-4.357054085E-2
5.218574167E-1,6.108243251E-4,-1.679461598E-1,-3.745670244E-2
5.318754167E-1,-1.125823008E-3,-1.613966525E-1,-3.287873045E-2
5.418934167E-1,-1.335370541E-2,-1.415580362E-1,-2.955782413E-2
5.519114167E-1,-2.726526000E-2,-9.920577705E-2,-2.585309930E-2
5.619294167E-1,-4.863641039E-2,-4.891120270E-2,-2.957894281E-2
5.719474167E-1,-6.178203970E-2,-5.068646744E-3,-3.024499863E-2
5.819654167E-1,-6.347244978E-2,1.216941327E-2,-3.404869512E-2
5.919834167E-1,-4.163239896E-2,-6.441821344E-3,-3.494191915E-2
6.020014167E-1,-8.981257677E-3,-4.966636002E-2,-3.070280328E-2
6.120194167E-1,1.687537320E-2,-9.306629747E-2,-2.226857282E-2
6.220374167E-1,3.144121915E-2,-1.320941001E-1,-1.147640962E-2
6.320554167E-1,2.669440210E-2,-1.591499448E-1,-6.698432378E-3
6.420734167E-1,1.401492022E-2,-1.635852307E-1,-1.535630599E-2
6.520924167E-1,-3.835982177E-3,-1.623457968E-1,-3.098293580E-2
6.621104167E-1,-2.150573395E-2,-1.312772036E-1,-4.104069993E-2
6.721284167E-1,-3.555311263E-2,-8.467213809E-2,-3.037101217E-2
6.821464167E-1,-4.235628247E-2,-3.087015450E-2,-9.861320257E-3
6.921644167E-1,-4.452995583E-2,2.452252805E-2,4.464888480E-3
7.021824167E-1,-3.826223686E-2,6.599543989E-2,4.975429270E-3
7.122004167E-1,-3.812561557E-2,7.034784555E-2,-7.974457927E-3
7.222184167E-1,-3.786589205E-2,4.804991558E-2,-2.018347755E-2
7.322364167E-1,-3.784671798E-2,1.222880185E-2,-2.484134585E-2
7.422544167E-1,-3.995414451E-2,-2.575941756E-2,-2.359649912E-2
7.522724167E-1,-3.721348569E-2,-4.051519185E-2,-1.990322769E-2
7.622904167E-1,-3.346636146E-2,-4.832918942E-2,-1.932045259E-2
7.723084167E-1,-3.321762010E-2,-6.508632749E-2,-1.009393204E-2
7.823264167E-1,-3.479189426E-2,-9.064994752E-2,3.190092975E-4
7.923444167E-1,-4.039065912E-2,-1.249647737E-1,1.031678263E-2
8.023624167E-1,-5.273532495E-2,-1.614105403E-1,1.019693352E-2
8.123804167E-1,-6.996916980E-2,-1.843680590E-1,1.138949767E-2
8.223984167E-1,-7.256297022E-2,-1.676881760E-1,7.439607754E-3
8.324174167E-1,-7.009554654E-2,-1.334156841E-1,-1.319989003E-2
8.424354167E-1,-6.693527848E-2,-1.210736632E-1,-3.553498536E-2
8.524534167E-1,-7.283497602E-2,-1.405349821E-1,-6.067975610E-2
8.624714167E-1,-7.744202763E-2,-1.909555197E-1,-7.287733257E-2
8.724894167E-1,-8.257313818E-2,-2.534553707E-1,-6.959365308E-2
8.825074167E-1,-7.431006432E-2,-3.271688223E-1,-4.998184741E-2
8.925254167E-1,-5.910341814E-2,-4.003242552E-1,-2.950560115E-2
9.025434167E-1,-8.943001926E-2,-5.295476317E-1,1.084261611E-1
9.125614167E-1,-1.285896748E-1,-3.981030583E-1,1.819845438E-1
9.225794167E-1,-6.716211140E-2,-1.756094247E-1,1.594248861E-1
9.325974167E-1,-3.843086213E-2,-1.532463282E-1,4.041355103E-2
9.426154167E-1,-6.306713820E-2,-6.208229810E-2,-7.442289591E-2
9.526334167E-1,-1.226138249E-1,-1.396244112E-2,-1.086762100E-1
9.626514167E-1,-1.738291085E-1,-1.725459658E-2,-7.771881670E-2
9.726680000E-1,-1.827016920E-1,-3.787785023E-2,-4.272008315E-2
9.826860000E-1,-1.534180045E-1,-6.365346909E-2,-2.879584394E-2
9.927040000E-1,-9.365107864E-2,-9.153250605E-2,-2.407299541E-2
1.002723000E0,-2.983669192E-2,-1.339287162E-1,-7.314297836E-3
1.012741000E0,1.582853124E-2,-1.425680071E-1,5.419074092E-3
1.022759000E0,4.564012960E-2,-1.293012351E-1,1.768999733E-2
1.032777000E0,5.487383902E-2,-1.381988674E-1,1.735603623E-2
1.042795000E0,4.662677273E-2,-1.135053113E-1,-5.111857317E-3
1.052813000E0,2.782379091E-2,-7.504341006E-2,-3.465989605E-2
1.062831000E0,5.480261985E-3,-2.030799538E-2,-5.421058089E-2
1.072849000E0,-1.304495241E-2,2.448370680E-2,-6.038059294E-2
1.082867000E0,-2.116414160E-2,4.935850203E-2,-5.877806991E-2
1.092885000E0,-1.392194070E-2,6.612843275E-2,-5.194626376E-2
1.102903000E0,-5.610199878E-5,5.556219816E-2,-3.747153282E-2
1.112921000E0,1.353400853E-2,3.085684963E-2,-2.169363387E-2
1.122939000E0,1.866469346E-2,1.232156530E-2,-5.983212497E-3
1.132957000E0,2.433589473E-2,-1.408894546E-3,1.175897196E-3
1.142975000E0,2.965034917E-2,-1.286592521E-2,5.558134988E-3
1.152993000E0,3.931815922E-2,-1.695360988E-2,1.234147325E-2
1.163011000E0,4.839016870E-2,-2.444505692E-2,1.078215986E-2
1.173030000E0,4.349048436E-2,-2.139706910E-2,5.193250254E-3
1.183048000E0,3.089799359E-2,-8.790995926E-3,1.312758541E-3
1.193066000E0,2.304965816E-2,1.169226132E-3,1.957243308E-3
1.203084000E0,2.136707120E-2,8.801313117E-3,6.349594798E-3
1.213102000E0,2.752429992E-2,2.184627578E-2,7.122178096E-3
1.223120000E0,3.310848773E-2,3.377369046E-2,9.556548670E-3
1.233138000E0,3.053560480E-2,3.583364561E-2,1.829997264E-2
1.243156000E0,2.445304953E-2,3.232977539E-2,2.980046906E-2
1.253174000E0,4.935808945E-3,2.122332901E-2,4.392560944E-2
1.263192000E0,-1.868211105E-2,5.746711977E-3,5.369874835E-2
1.273210000E0,-4.133336246E-2,4.490498453E-3,5.428757146E-2
1.283228000E0,-5.268665031E-2,-6.460996345E-3,4.377233610E-2
1.293246000E0,-4.928898811E-2,-3.463883698E-2,4.007000849E-2
1.303264000E0,-2.646191046E-2,-4.920998216E-2,4.825270548E-2
1.313282000E0,4.833427258E-3,-4.689675570E-2,5.016272515E-2
1.323300000E0,2.785829641E-2,-4.998508096E-2,4.017412290E-2
1.333318000E0,4.267372936E-2,-5.617772788E-2,2.929031849E-2
1.343337000E0,4.148263484E-2,-7.259583473E-2,2.220353484E-2
1.353355000E0,2.498381771E-2,-9.248353541E-2,2.885105088E-2
1.363373000E0,7.392338593E-4,-8.266290277E-2,4.192129895E-2
1.373391000E0,-2.993585356E-2,-5.664221942E-2,4.882288352E-2
1.383409000E0,-4.962459207E-2,-4.176259041E-2,4.258793220E-2
1.393427000E0,-6.537612528E-2,-4.304596782E-2,2.954110876E-2
1.403445000E0,-6.952750683E-2,-5.061890185E-2,2.050790004E-2
1.413463000E0,-6.562598050E-2,-4.869290441E-2,1.542046480E-2
1.423481000E0,-4.726530984E-2,-3.337045014E-2,1.313599199E-2
1.433499000E0,-2.966181561E-2,-2.245021518E-3,1.163743157E-2
1.443517000E0,-8.048607036E-3,1.607733592E-2,3.171644872E-3
1.453535000E0,1.177995838E-2,1.371164992E-2,-3.814092837E-3
1.463553000E0,2.099746093E-2,1.361465082E-3,-5.166724790E-3
1.473571000E0,2.062381990E-2,-1.642314717E-3,-6.238380447E-3
1.483589000E0,1.417505555E-2,-5.596379749E-3,-8.084199391E-3
1.493607000E0,3.970354795E-3,-1.765117794E-2,-1.254925504E-2
1.503625000E0,-1.994846761E-2,-4.172079265E-2,-5.253934301E-3
1.513644000E0,-3.846303001E-2,-5.910324305E-2,1.955474168E-2
1.523662000E0,-4.021193832E-2,-5.267740786E-2,3.220571578E-2
1.533680000E0,-1.801528968E-2,-2.844104357E-2,3.076574765E-2
1.543698000E0,1.134186890E-2,-5.298703909E-4,2.151922695E-2
1.553716000E0,3.886137903E-2,-4.781340715E-3,5.567957181E-3
1.563734000E0,5.417649820E-2,-2.303977683E-2,-6.757133175E-3
1.573752000E0,4.717265069E-2,-3.726878017E-2,-1.155987848E-2
1.583770000E0,2.597143501E-2,-2.628837712E-2,-1.085614040E-2
1.593788000E0,-6.986514665E-3,-1.215604693E-2,-1.346896775E-2
1.603806000E0,-4.006579891E-2,-4.878900945E-4,-1.753944345E-2
1.613824000E0,-5.968930200E-2,5.051750690E-3,-3.064858727E-2
1.623842000E0,-6.324461848E-2,2.699485980E-3,-3.768668324E-2
1.633860000E0,-4.116301239E-2,-6.294008810E-3,-4.388838634E-2
1.643878000E0,-1.003950462E-2,-9.209447540E-3,-5.208120495E-2
1.653896000E0,2.110616490E-2,-7.226990536E-3,-5.637129396E-2
1.663914000E0,3.609231487E-2,1.289636828E-3,-5.014684796E-2
1.673932000E0,2.918407507E-2,-1.216438599E-2,-3.622943163E-2
1.683951000E0,1.533317100E-2,-1.966323145E-2,-2.758318931E-2
1.693969000E0,-4.132671282E-3,-2.506572008E-2,-2.226512320E-2
1.703987000E0,-2.118222788E-2,-2.018867433E-2,-1.874043047E-2
1.714005000E0,-4.455146566E-2,-2.201933041E-2,-6.497344933E-3
1.724023000E0,-5.557020381E-2,-2.179292589E-2,1.968511380E-2
1.734041000E0,-5.409215018E-2,-1.911431924E-2,4.718384892E-2
1.744059000E0,-2.874463424E-2,-1.578543708E-2,6.033242494E-2
1.754077000E0,-1.104217023E-3,-1.427489147E-2,5.594593287E-2
1.764095000E0,6.589607801E-3,-1.861928031E-2,4.494199157E-2
1.774113000E0,-4.270224017E-4,-2.211095020E-2,4.359816015E-2
1.784131000E0,-2.022821456E-2,-3.015909903E-2,2.823770605E-2
1.794149000E0,-4.039287195E-2,-3.668837249E-2,9.149233811E-3
1.804167000E0,-4.944457486E-2,-3.560936823E-2,-7.214287296E-3
1.814185000E0,-4.815001413E-2,-2.834772691E-2,-1.596277207E-2
1.824203000E0,-4.207744822E-2,-2.045959234E-2,-1.515035890E-2
1.834221000E0,-3.461367264E-2,-1.669334993E-2,-3.412741935E-3
1.844239000E0,-2.787891030E-2,-1.231596246E-2,1.236711908E-2
1.854258000E0,-2.308948152E-2,-1.242408622E-2,1.120491512E-2
1.864276000E0,-1.849526167E-2,-1.398496516E-2,2.832918544E-4
1.874294000E0,-2.737504058E-2,-1.182594057E-2,1.889177947E-3
1.884312000E0,-3.589846194E-2,-5.254738033E-3,5.364485551E-3
1.894330000E0,-4.263466224E-2,7.812327705E-3,1.208364032E-2
1.904348000E0,-4.342428967E-2,8.022184484E-3,1.874260791E-2
1.914366000E0,-3.689075634E-2,7.384400815E-4,2.313735709E-2
1.924384000E0,-3.309027478E-2,-1.775257476E-2,2.210910432E-2
1.934402000E0,-2.582889982E-2,-3.796064109E-2,2.544391528E-2
1.944420000E0,-3.039365076E-2,-4.462017491E-2,2.188261040E-2
1.954438000E0,-4.321757331E-2,-4.192612320E-2,1.210961025E-2
1.964456000E0,-5.435334519E-2,-2.219232172E-2,5.861579906E-3
1.974474000E0,-5.676670372E-2,-3.219163977E-3,9.658182040E-3
1.984492000E0,-5.737354606E-2,5.321627483E-3,1.154062897E-2
1.994510000E0,-4.573340341E-2,-4.896122962E-3,1.019120496E-2
2.004528000E0,-3.847420216E-2,-1.693420485E-2,6.716434145E-4
2.014546000E0,-3.073398955E-2,-1.685058139E-2,-2.145096846E-2
2.024564000E0,-2.634943277E-2,-1.912208274E-2,-4.404407367E-2
2.034583000E0,-2.166732959E-2,-1.760062017E-2,-5.163514987E-2
2.044601000E0,-2.717427164E-2,-1.219474711E-2,-4.576701298E-2
2.054619000E0,-3.043424711E-2,4.794356413E-3,-2.971587330E-2
2.064637000E0,-2.457302250E-2,2.765706927E-2,-1.090794243E-2
2.074655000E0,-4.995860159E-3,3.767508268E-2,5.556784570E-3
2.084673000E0,1.924470626E-2,3.551970795E-2,2.879192866E-2
2.094691000E0,5.136136338E-2,1.932129823E-2,3.914550319E-2
2.104709000E0,8.120876551E-2,-1.803308725E-3,4.496785253E-2
2.114727000E0,9.839174151E-2,-2.084038407E-2,4.554761946E-2
2.124745000E0,8.891785890E-2,-3.296542913E-2,3.751988336E-2
2.134763000E0,6.382182986E-2,-4.175465554E-2,2.492712624E-2
2.144781000E0,2.524717152E-2,-4.777673632E-2,1.792438142E-2
2.154799000E0,-1.173880976E-2,-5.003722757E-2,8.712773211E-3
2.164817000E0,-3.786696866E-2,-4.967221990E-2,1.789093250E-3
2.174835000E0,-5.159902573E-2,-4.531129450E-2,1.339355111E-2
2.184853000E0,-6.891819090E-2,-4.316908121E-2,2.694572136E-2
2.194871000E0,-8.746337891E-2,-5.332078785E-2,3.976804391E-2
2.204890000E0,-8.328380436E-2,-7.132205367E-2,5.452791974E-2
2.214908000E0,-7.239333540E-2,-8.048492670E-2,5.441100895E-2
2.224926000E0,-5.281482637E-2,-8.892437816E-2,4.961608723E-2
2.234944000E0,-3.241607919E-2,-8.392509073E-2,4.118638486E-2
2.244962000E0,-1.550578233E-2,-6.356164068E-2,3.832843155E-2
2.254980000E0,-2.329793060E-3,-2.591945976E-2,3.572439030E-2
2.264998000E0,1.895509544E-3,-6.551854312E-6,3.119384870E-2
2.275016000E0,-1.133480854E-2,8.765900508E-3,3.098425642E-2
2.285034000E0,-3.837893158E-2,1.095645595E-2,3.419560194E-2
2.295052000E0,-6.707210094E-2,-3.073342610E-3,3.715384007E-2
2.305070000E0,-7.809650898E-2,-1.847598702E-2,4.872718453E-2
2.315088000E0,-6.762415916E-2,-2.962504514E-2,6.191861629E-2
2.325106000E0,-3.823841736E-2,-3.875744343E-2,5.911909789E-2
2.335124000E0,-5.741463508E-3,-3.927276284E-2,4.882491753E-2
2.345142000E0,1.863957755E-2,-3.663419187E-2,3.894136846E-2
2.355160000E0,2.671454847E-2,-3.979828954E-2,2.991538122E-2
2.365179000E0,1.878065616E-2,-4.691257328E-2,1.704195142E-2
2.375197000E0,2.108470071E-3,-4.802630842E-2,7.194377831E-4
2.385215000E0,-8.398788981E-3,-3.840229660E-2,-1.829888904E-3
2.395233000E0,-4.334272817E-3,-1.899850741E-2,2.229301026E-3
2.405251000E0,4.632822704E-3,5.229910836E-3,7.285058964E-3
2.415269000E0,1.897287928E-2,2.209411189E-2,9.911201894E-3
2.425287000E0,2.743178606E-2,2.554286830E-2,1.127914339E-2
2.435305000E0,3.145635501E-2,2.292711101E-2,1.480623428E-2
2.445323000E0,4.315154254E-2,2.036096156E-2,2.013307065E-2
2.455341000E0,5.638798699E-2,4.462422803E-3,2.728525735E-2
2.465359000E0,7.389965653E-2,-7.201985922E-3,3.634429350E-2
2.475377000E0,8.486761898E-2,-1.084838621E-2,4.486161843E-2
2.485395000E0,7.939553261E-2,-1.140944194E-2,4.981401563E-2
2.495413000E0,6.648585945E-2,-1.291199774E-2,5.049738288E-2
2.505431000E0,5.134221539E-2,-1.426397264E-2,4.424240440E-2
2.515449000E0,3.598722816E-2,-7.549877279E-3,3.244513646E-2
2.525467000E0,2.734746598E-2,2.018508501E-3,2.636564896E-2
2.535486000E0,2.303607576E-2,1.637161523E-2,3.209916875E-2
2.545504000E0,1.659649424E-2,2.975125983E-2,3.666608408E-2
2.555522000E0,8.090357296E-3,2.884631976E-2,4.159053415E-2
2.565540000E0,6.257767323E-3,1.924517378E-2,3.097839653E-2
2.575558000E0,9.810158052E-3,-5.157478154E-4,1.842212677E-2
2.585576000E0,1.137614436E-2,-1.466781460E-2,1.247558463E-2
2.595594000E0,1.979279704E-2,-1.669474691E-2,7.704798598E-3
2.605612000E0,3.059616499E-2,-5.007742904E-3,-1.761718420E-3
2.615630000E0,4.712693766E-2,1.111902855E-2,-1.786079258E-2
2.625648000E0,5.761575326E-2,1.826795563E-2,-3.188402578E-2
2.635666000E0,6.131115556E-2,2.382623777E-2,-4.079309851E-2
2.645684000E0,5.777779967E-2,3.456862271E-2,-4.666099697E-2
2.655702000E0,4.532858729E-2,3.771727905E-2,-3.995302692E-2
2.665720000E0,2.627803572E-2,3.095476329E-2,-1.845289394E-2
2.675738000E0,8.336586878E-3,1.796173304E-2,-2.178848721E-3
2.685756000E0,-5.570222158E-3,6.201509386E-3,9.851151146E-3
2.695775000E0,-1.611394249E-2,3.905065358E-3,2.390624955E-2
2.705793000E0,-1.593920588E-2,5.881087855E-3,3.492746130E-2
2.715811000E0,-6.822406314E-3,-5.653593689E-4,3.881620988E-2
2.725829000E0,-8.663774468E-3,-1.449030824E-2,3.643334657E-2
2.735847000E0,-2.183523588E-2,-2.713899128E-2,2.774957381E-2
2.745865000E0,-2.963151224E-2,-2.093516290E-2,2.010854334E-2
2.755883000E0,-4.549596459E-2,-2.101821825E-3,1.584828459E-2
2.765901000E0,-6.594079733E-2,1.971282437E-2,1.302309986E-2
2.775919000E0,-8.409263939E-2,3.724920750E-2,1.433044579E-2
2.785937000E0,-9.342142195E-2,6.181900203E-2,1.069443114E-2
2.795955000E0,-8.934306353E-2,7.523147762E-2,-6.003322545E-3
2.805973000E0,-6.669040769E-2,6.995673478E-2,-2.625535615E-2
2.815991000E0,-2.249418385E-2,4.875317961E-2,-3.688696027E-2
2.826009000E0,1.398356352E-2,2.758623287E-2,-3.421524167E-2
2.836027000E0,4.982971027E-2,1.607765257E-2,-2.975391224E-2
2.846045000E0,7.192414999E-2,2.508374117E-2,-3.130533546E-2
2.856063000E0,7.638148218E-2,2.499079518E-2,-3.541778773E-2
2.866082000E0,6.795372814E-2,2.427513525E-2,-3.953501582E-2
2.876100000E0,4.805032536E-2,1.844787225E-2,-3.791874275E-2
2.886118000E0,3.300524876E-2,1.110001467E-2,-3.859387338E-2
2.896136000E0,1.390132960E-2,-2.678914927E-3,-3.410804272E-2
2.906154000E0,9.930222295E-4,4.316635430E-3,-2.377712354E-2
2.916172000E0,8.859632071E-4,1.464410871E-2,-5.832477473E-3
2.926190000E0,-4.002371803E-3,1.445807796E-2,1.808913797E-2
2.936208000E0,-1.365446672E-2,4.373752512E-3,3.746683151E-2
2.946226000E0,-2.260655537E-2,-1.291576214E-2,4.743381962E-2
2.956244000E0,-2.153223567E-2,-1.135195326E-2,4.510408640E-2
2.966262000E0,-1.519875415E-2,-2.264154144E-3,4.129973426E-2
2.976280000E0,-5.711509380E-3,1.851553097E-4,4.273251444E-2
2.986298000E0,-1.149507239E-2,-1.245249063E-2,5.568521097E-2
2.996316000E0,-2.176075988E-2,-3.134868294E-2,6.918610632E-2
3.006334000E0,-4.252268001E-2,-5.351131409E-2,6.722977012E-2
3.016352000E0,-6.440827250E-2,-6.191092357E-2,4.599079117E-2
3.026371000E0,-7.523988187E-2,-5.714359879E-2,1.712718606E-2
3.036389000E0,-6.365726143E-2,-3.347209096E-2,-1.636206545E-2
3.046407000E0,-3.187289834E-2,-1.236742362E-3,-3.780639544E-2
3.056425000E0,-8.124506567E-4,2.285181545E-2,-3.359647095E-2
3.066443000E0,2.230001427E-2,3.221622482E-2,-1.211097836E-2
3.076461000E0,2.916724235E-2,3.258161247E-2,-3.239189275E-3
3.086479000E0,2.588049509E-2,1.887165010E-2,-5.179457832E-3
3.096497000E0,1.750192419E-2,7.785443217E-3,-9.858632460E-3
3.106515000E0,4.047900438E-3,1.371220686E-3,-1.554900873E-2
3.116533000E0,-1.099789515E-2,6.219770759E-3,-1.664543152E-2
3.126551000E0,-3.055303544E-2,7.983654737E-3,-1.744998991E-2
3.136569000E0,-4.299852252E-2,1.965602301E-2,-1.773441583E-2
3.146587000E0,-4.321211576E-2,2.768241800E-2,-2.196708322E-2
3.156605000E0,-3.112908825E-2,1.899758540E-2,-2.906973474E-2
3.166623000E0,-1.760204881E-2,-9.499629959E-4,-3.824769333E-2
3.176641000E0,-5.824485328E-3,-3.205275536E-2,-3.476454690E-2
3.186660000E0,2.588754054E-3,-4.463728517E-2,-1.922576688E-2
3.196678000E0,1.135268435E-2,-4.008594155E-2,-4.945099354E-3
3.206696000E0,1.140550710E-2,-2.008955926E-2,6.427520886E-3
3.216714000E0,3.462629393E-3,5.892504938E-3,1.761945523E-2
3.226732000E0,-1.132921595E-2,3.380574286E-2,2.862443030E-2
3.236750000E0,-2.282341942E-2,5.045768619E-2,4.585721344E-2
3.246768000E0,-2.757872641E-2,4.877000302E-2,5.117446929E-2
3.256786000E0,-1.659265347E-2,2.756750956E-2,5.570290610E-2
3.266804000E0,5.223118700E-3,1.767433435E-2,4.654633254E-2
