"Time (s)","X (rad/s)","Y (rad/s)","Z (rad/s)"
3.750124946E-3,-3.234009147E-1,-6.591871381E-1,1.293371022E-1
1.377212495E-2,-4.249419272E-1,-7.822585106E-1,8.171819896E-2
2.379412495E-2,-5.499707460E-1,-9.327409267E-1,4.738249630E-2
3.381612495E-2,-6.644467711E-1,-1.149324059E0,4.399335757E-2
4.383812496E-2,-7.552501559E-1,-1.330491543E0,5.210173875E-2
5.386012496E-2,-8.447371721E-1,-1.424496055E0,6.282176077E-2
6.388212496E-2,-9.160750508E-1,-1.490562558E0,1.071499214E-1
7.390412496E-2,-9.618806243E-1,-1.567512751E0,1.900258958E-1
8.392612496E-2,-9.924015403E-1,-1.591048360E0,2.744148076E-1
9.394812497E-2,-9.849124551E-1,-1.510212183E0,3.225101531E-1
1.039701250E-1,-8.909615278E-1,-1.305824637E0,3.493175805E-1
1.139921250E-1,-7.267851233E-1,-1.069511890E0,3.586314321E-1
1.240141250E-1,-5.315451026E-1,-8.769789338E-1,3.381860256E-1
1.340371250E-1,-3.735645413E-1,-7.438443303E-1,2.922227979E-1
1.440591250E-1,-2.888858914E-1,-6.168490052E-1,2.469656765E-1
1.540811250E-1,-2.666551769E-1,-4.331289530E-1,2.335593253E-1
1.641031250E-1,-2.583552003E-1,-1.953467876E-1,2.497227639E-1
1.741251250E-1,-2.268465459E-1,-5.351285450E-3,2.979374528E-1
1.841471250E-1,-2.007458359E-1,1.028723866E-1,3.847214878E-1
1.941691250E-1,-2.101350725E-1,2.322974950E-1,4.741549492E-1
2.041911250E-1,-2.011875659E-1,3.689919114E-1,6.113210917E-1
2.142131250E-1,-1.451525241E-1,4.743865132E-1,7.211211324E-1
2.242351249E-1,-4.654906318E-2,5.612747669E-1,7.510939837E-1
2.342571249E-1,8.454158157E-2,5.598494411E-1,7.001988888E-1
2.442791249E-1,2.326940745E-1,4.565624893E-1,5.915867090E-1
2.543011250E-1,3.535901308E-1,3.089138865E-1,4.738651514E-1
2.643231250E-1,3.998762965E-1,1.777831912E-1,3.264680207E-1
2.743451250E-1,3.607339561E-1,1.271620858E-2,1.673183292E-1
2.843671250E-1,2.539656460E-1,-1.332909614E-1,8.199471235E-2
2.943891250E-1,1.189764217E-1,-1.903731525E-1,1.055658162E-1
3.044111250E-1,5.840516184E-3,-1.858825535E-1,2.116104364E-1
3.144331250E-1,-6.480116397E-2,-1.782667190E-1,3.612721264E-1
3.244551250E-1,-9.366763383E-2,-1.662288904E-1,4.904816151E-1
3.344771250E-1,-1.025359556E-1,-1.347860098E-1,5.342938304E-1
3.444991250E-1,-1.025782898E-1,-1.105720177E-1,4.740427434E-1
3.545211250E-1,-1.111552715E-1,-1.326054186E-1,3.654246628E-1
3.645431250E-1,-1.144545749E-1,-2.064952850E-1,2.359456569E-1
3.745651250E-1,-1.223926619E-1,-2.634272873E-1,1.207444966E-1
3.845871250E-1,-1.238857135E-1,-2.425186038E-1,4.945498332E-2
3.946091250E-1,-1.100687012E-1,-2.408514619E-1,-1.601543394E-3
4.046311250E-1,-9.263490140E-2,-2.787332535E-1,-2.044552378E-2
4.146531250E-1,-9.597849846E-2,-3.033350110E-1,-1.822444797E-2
4.246751250E-1,-1.178480163E-1,-3.247087598E-1,-1.353242714E-2
4.346971250E-1,-1.397985965E-1,-3.384104669E-1,-1.028310414E-2
4.447191250E-1,-1.431710124E-1,-2.956032753E-1,2.254541498E-3
4.547411250E-1,-1.297193915E-1,-1.909620762E-1,1.128372271E-2
4.647631250E-1,-9.697937220E-2,-5.306729302E-2,-9.539597668E-3
4.747851250E-1,-6.851577759E-2,6.458237022E-2,-5.708714575E-2
4.848081250E-1,-5.823407322E-2,1.152961925E-1,-1.023517475E-1
4.948301250E-1,-5.637838319E-2,7.336071879E-2,-1.283428669E-1
5.048521250E-1,-5.989986286E-2,2.253764123E-2,-1.292510927E-1
5.148741250E-1,-5.438605323E-2,-5.248706788E-2,-1.190650389E-1
5.248961250E-1,-6.302630901E-2,-8.984459937E-2,-1.026439220E-1
5.349180000E-1,-9.298580885E-2,-6.450808048E-2,-9.969740361E-2
5.449400000E-1,-1.204249337E-1,-2.201738581E-2,-1.037050039E-1
5.549620000E-1,-1.150586680E-1,2.584068477E-2,-1.083551496E-1
5.649840000E-1,-8.006311208E-2,8.141674846E-2,-1.072561592E-1
5.750060000E-1,-3.212727606E-2,1.439387053E-1,-1.052510664E-1
5.850279999E-1,2.120527811E-2,1.788676232E-1,-1.011875719E-1
5.950499999E-1,6.353542209E-2,1.710650921E-1,-9.550146013E-2
6.050719999E-1,8.991292119E-2,1.555613130E-1,-8.539152890E-2
6.150939999E-1,8.698157966E-2,1.463979185E-1,-7.558204234E-2
6.251160000E-1,7.375135273E-2,1.479747295E-1,-6.217325106E-2
6.351380000E-1,4.808673263E-2,1.355881095E-1,-5.293101445E-2
6.451600000E-1,2.167379484E-2,9.982226789E-2,-5.174119398E-2
6.551820000E-1,2.723668294E-4,6.860602647E-2,-4.833687842E-2
6.652040000E-1,-1.453033928E-2,5.445007607E-2,-3.716862574E-2
6.752260000E-1,-3.150426596E-2,4.640280083E-2,-3.587060049E-2
6.852480000E-1,-3.476466238E-2,2.351996675E-2,-3.913567960E-2
6.952700000E-1,-3.363921121E-2,-1.319602132E-3,-3.975300118E-2
7.052920000E-1,-3.163362294E-2,-2.137777209E-2,-2.644846216E-2
7.153140000E-1,-2.563644946E-2,-3.278382123E-2,-2.192028984E-2
7.253360000E-1,-1.733115502E-2,-4.567702115E-2,-2.180771530E-2
7.353580000E-1,3.098900779E-4,-3.055426478E-2,-2.225033380E-2
7.453800000E-1,5.550152157E-3,4.318431020E-4,-1.653313823E-2
7.554020000E-1,1.992169069E-3,3.963037953E-2,-4.867693875E-3
7.654240000E-1,4.457576200E-3,6.954764575E-2,-3.174218582E-3
7.754460000E-1,1.634379663E-2,8.548853546E-2,-1.495045051E-2
7.854680000E-1,2.804837003E-2,6.955734640E-2,-2.505252510E-2
7.954900000E-1,4.381242022E-2,4.107137769E-2,-2.348365821E-2
8.055120000E-1,4.337980226E-2,4.028696567E-2,-1.290129218E-2
8.155340000E-1,3.541455418E-2,5.555566400E-2,-5.645776168E-3
8.255569999E-1,3.039729781E-2,4.972200841E-2,-9.896037169E-3
8.355789999E-1,2.322300896E-2,3.987523913E-2,-1.494352613E-2
8.456009999E-1,1.300984435E-2,3.921683133E-2,-1.526951324E-2
8.556230000E-1,6.754345261E-3,3.916063905E-2,-7.274969481E-3
8.656450000E-1,4.305596929E-3,4.278949648E-2,3.993188497E-3
8.756670000E-1,6.889928132E-3,4.763378575E-2,9.734165855E-3
8.856890000E-1,8.779185824E-3,3.598165885E-2,4.776178859E-3
8.957110000E-1,5.106420722E-3,2.076089382E-2,1.412339741E-3
9.057330000E-1,-8.878424764E-3,3.472366184E-2,1.034247503E-2
9.157550000E-1,-1.634672843E-2,5.311891437E-2,2.011734061E-2
9.257770000E-1,-1.999254152E-2,6.432994455E-2,1.743897609E-2
9.357990000E-1,-1.807240210E-2,4.838080332E-2,-2.564026043E-3
9.458210000E-1,-2.432277054E-2,1.782137156E-2,-1.061968319E-2
9.558430000E-1,-4.003542289E-2,-6.566524971E-3,-1.197256893E-2
9.658650000E-1,-4.367250204E-2,-1.917313039E-2,-9.971469641E-3
9.758870000E-1,-2.299731597E-2,-2.172976546E-2,-8.551205508E-3
9.859090000E-1,1.122086123E-2,-2.229260467E-2,-1.499295235E-2
9.959310000E-1,3.026618995E-2,-3.686962649E-3,-1.170128584E-2
1.005953000E0,2.912067622E-2,2.521769330E-2,-3.155514132E-3
1.015975000E0,2.363243327E-2,3.353208303E-2,-3.395731328E-3
1.025997000E0,2.209089883E-2,3.124633059E-2,-1.308543887E-2
1.036019000E0,2.124800906E-2,1.061375532E-2,-1.989886910E-2
1.046041000E0,-7.287309505E-3,-1.861898229E-3,-1.971926540E-2
1.056063000E0,-2.803706378E-2,1.383610535E-2,-1.639510691E-2
1.066085000E0,-2.576445043E-2,2.052543499E-2,-1.593183912E-2
1.076107000E0,-1.539270859E-3,2.661341988E-2,-8.724794723E-3
1.086129000E0,1.070847642E-2,3.822267056E-2,-1.053480618E-2
1.096151000E0,9.088209830E-3,4.338281602E-2,-2.173206769E-2
1.106173000E0,-2.356338373E-4,3.761376068E-2,-2.830045484E-2
1.116195000E0,-1.844712906E-2,2.542260662E-2,-2.592171915E-2
1.126217000E0,-3.404638544E-2,2.164339274E-2,-1.938044652E-2
1.136240000E0,-4.815528169E-2,2.568313852E-2,-2.064678073E-2
1.146262000E0,-5.433380976E-2,2.974392846E-2,-2.361459844E-2
1.156284000E0,-4.807884246E-2,2.994845808E-2,-2.438984439E-2
1.166306000E0,-3.714790195E-2,3.687693924E-2,-1.764193550E-2
1.176328000E0,-1.903521456E-2,3.876858205E-2,-8.294239640E-3
1.186350000E0,-8.750391193E-3,2.799871936E-2,-8.102304302E-3
1.196372000E0,-1.305592339E-2,2.003134042E-2,-1.907258993E-3
1.206394000E0,-3.334939852E-2,2.476465143E-2,5.898356438E-3
1.216416000E0,-6.056983396E-2,1.497513987E-2,1.173547283E-2
1.226438000E0,-7.616720349E-2,-1.364147943E-2,4.550334532E-3
1.236460000E0,-8.098352700E-2,-4.497650266E-2,-3.364047268E-3
1.246482000E0,-6.881868839E-2,-6.149151921E-2,-1.206129231E-2
1.256504000E0,-5.475879461E-2,-4.963006079E-2,-1.752157137E-2
1.266526000E0,-6.179273874E-2,-1.453599520E-2,-1.445574500E-2
1.276548000E0,-6.822400540E-2,2.119483799E-2,-1.643021218E-2
1.286570000E0,-4.728026688E-2,3.578215092E-2,-1.852803305E-2
1.296592000E0,-2.178476006E-2,3.034530580E-2,-1.365577988E-2
1.306614000E0,1.683035749E-3,1.681580022E-2,-8.060571738E-3
1.316636000E0,9.634496528E-4,7.052653469E-3,2.685816027E-3
1.326658000E0,-1.600885577E-2,5.498850718E-3,2.164009027E-3
1.336680000E0,-2.811079100E-2,-9.772513993E-3,-3.870713990E-3
1.346702000E0,-3.187431023E-2,-2.071072534E-2,-3.281637793E-3
1.356724000E0,-2.737357095E-2,-1.819297299E-2,-2.836357336E-3
1.366746000E0,-2.161453664E-2,9.788672440E-3,5.039169453E-3
1.376768000E0,-2.198951133E-2,2.966810390E-2,7.688482292E-3
1.386790000E0,-1.124233007E-2,3.411372006E-2,2.246833174E-3
1.396812000E0,7.488187402E-4,2.193987556E-2,-3.023562487E-3
1.406834000E0,1.149774063E-2,1.187658962E-2,2.586584014E-4
1.416856000E0,-1.677036635E-4,6.560920738E-3,6.284326781E-3
1.426878000E0,-2.263782918E-2,6.120203063E-3,8.837825619E-3
1.436901000E0,-3.795606643E-2,4.169970751E-3,3.520824248E-3
1.446923000E0,-4.824582860E-2,-3.584734630E-3,1.049727434E-3
1.456945000E0,-4.993586987E-2,-3.554907162E-3,3.800772596E-3
1.466967000E0,-5.390789732E-2,4.080984741E-3,4.875514656E-3
1.476989000E0,-5.563335866E-2,-2.351614647E-3,-4.392019473E-3
1.487011000E0,-5.623891577E-2,-1.648721844E-2,-1.536267903E-2
1.497033000E0,-6.614347547E-2,-2.906586230E-2,-1.471819356E-2
1.507055000E0,-6.588287652E-2,-2.489135414E-2,-1.470287051E-2
1.517077000E0,-5.656421185E-2,-1.555271447E-2,-1.087111421E-2
1.527099000E0,-3.881416470E-2,3.031698987E-3,-7.696469780E-3
1.537120625E0,-1.895044744E-2,1.261535008E-2,-7.029614411E-3
1.547142625E0,-9.836960584E-3,1.069909055E-2,-7.108945400E-3
1.557164625E0,-9.201264009E-3,1.391618978E-2,-6.361396052E-3
1.567186625E0,-9.011588059E-3,8.180463687E-3,-3.542189021E-3
1.577208625E0,-7.635266054E-3,9.667307138E-3,-6.117199548E-3
1.587230625E0,-1.960065711E-4,6.523828022E-3,-9.190118872E-3
1.597252625E0,1.237704325E-2,-3.237989265E-3,-1.510073803E-2
1.607274625E0,2.060654946E-2,-1.090915035E-2,-1.511736773E-2
1.617296625E0,3.286561370E-2,-5.369363353E-4,-1.448326930E-2
1.627318625E0,4.064159840E-2,1.158786472E-2,-9.373149835E-3
1.637340625E0,4.599588364E-2,2.235449106E-2,-8.564081974E-3
1.647362625E0,5.334054679E-2,2.641014755E-2,-6.521311123E-3
1.657384625E0,5.554777756E-2,3.123952076E-2,-5.085335113E-3
1.667406625E0,5.014285818E-2,3.705544397E-2,-6.185945589E-3
1.677428625E0,4.002444446E-2,2.962655574E-2,-1.114768069E-2
1.687450625E0,3.191345558E-2,1.956266165E-2,-1.377369370E-2
1.697472625E0,2.768754959E-2,9.007756598E-3,-1.126792561E-2
1.707494625E0,1.967345551E-2,8.182862774E-3,-9.720051661E-3
1.717516625E0,9.565960616E-3,1.155575551E-2,-1.020155102E-2
1.727538625E0,8.886152878E-3,1.558694616E-2,-7.312228903E-3
1.737561625E0,1.290859096E-2,1.955186017E-2,-9.839302860E-3
1.747583625E0,1.694603451E-2,2.390289307E-2,-1.257591322E-2
1.757605625E0,2.804715559E-2,2.302884310E-2,-1.867535152E-2
1.767627625E0,4.363970831E-2,3.335646540E-2,-1.936895214E-2
1.777649625E0,5.797923356E-2,4.571193457E-2,-2.113622613E-2
1.787671625E0,6.693062186E-2,4.428604245E-2,-2.808447182E-2
1.797693625E0,7.273418456E-2,4.589592293E-2,-2.731188945E-2
1.807715625E0,6.985463202E-2,4.662243277E-2,-2.582598664E-2
1.817737625E0,6.010479853E-2,4.551722109E-2,-2.541479468E-2
1.827759625E0,4.832128063E-2,4.269031063E-2,-2.224276960E-2
1.837781625E0,4.456009716E-2,4.664403945E-2,-1.509138290E-2
1.847803625E0,3.682861105E-2,5.396035314E-2,-1.495400211E-3
1.857825625E0,2.691020072E-2,6.147872657E-2,7.603023667E-3
1.867847625E0,1.283348445E-2,4.448117316E-2,7.665645797E-3
1.877869625E0,1.088644750E-2,1.756806672E-2,7.837712765E-4
1.887891625E0,1.480085962E-2,-9.590352885E-3,-4.329967778E-3
1.897913625E0,1.843846962E-2,-2.133436128E-2,-8.302871138E-3
1.907935625E0,1.492268220E-2,-1.792673022E-2,-8.816629648E-3
1.917957625E0,1.183954068E-2,-1.080916636E-2,-1.753981411E-2
1.927979625E0,1.101534441E-2,-1.347187255E-2,-1.940165833E-2
1.938001625E0,1.878831349E-2,-5.344970152E-3,-1.312645152E-2
1.948023625E0,2.887650207E-2,1.165185682E-2,-3.373549320E-3
1.958045625E0,3.452586755E-2,3.243090585E-2,8.305166848E-4
1.968067625E0,3.872340173E-2,2.889688686E-2,-2.459958661E-3
1.978089625E0,2.413327619E-2,1.569693163E-2,-3.044788959E-3
1.988111625E0,1.108563785E-2,5.039076321E-3,-1.506176195E-3
1.998133625E0,9.528428782E-4,8.517430164E-3,-5.903321784E-3
2.008155625E0,-3.077473491E-3,1.374772657E-2,-6.849584635E-3
2.018177625E0,-5.685506854E-3,1.191573869E-2,-1.001794729E-2
2.028200625E0,-7.555598393E-3,9.867349640E-3,-1.272602193E-2
2.038222625E0,-3.929970786E-3,1.018729992E-3,-1.327596419E-2
2.048244625E0,-7.714421023E-3,1.562317833E-3,-1.245550811E-2
2.058266625E0,-1.108651608E-2,4.751186818E-3,-1.251196675E-2
2.068288625E0,-1.056540571E-2,8.564226329E-3,-9.191679768E-3
2.078310625E0,-1.273104106E-3,8.729342371E-3,-1.727372291E-3
2.088332625E0,8.593001985E-4,1.593574136E-2,4.431611393E-3
2.098354625E0,6.915328559E-3,1.311838347E-2,4.532012623E-3
2.108376625E0,5.150451791E-3,5.018911324E-3,3.197502578E-3
2.118398625E0,2.729904605E-3,-7.193546742E-3,4.204443656E-3
2.128420625E0,-2.644269029E-3,-1.359476056E-2,4.534980748E-3
2.138442625E0,-1.257333253E-2,-1.572955027E-2,3.687296761E-3
2.148464625E0,-2.844163589E-2,-8.419439197E-3,-9.874681709E-4
2.158486625E0,-3.488701954E-2,2.510973252E-3,-4.526010249E-3
2.168508625E0,-3.689076006E-2,1.470121276E-2,-3.174016718E-3
2.178530625E0,-3.326113895E-2,1.351930294E-2,-4.758330993E-3
2.188552625E0,-2.783341706E-2,9.408907034E-3,-6.688992493E-3
2.198574625E0,-2.382376231E-2,5.452248268E-3,-6.422676146E-3
2.208596625E0,-2.052624896E-2,4.528926685E-3,-9.939404204E-3
2.218618625E0,-2.619185671E-2,-4.548724275E-3,-1.132664457E-2
2.228640625E0,-3.359484673E-2,-7.454039529E-3,-7.292218972E-3
2.238662625E0,-3.617811203E-2,3.865733743E-4,-4.649297800E-3
2.248684625E0,-2.855584770E-2,1.051088143E-2,-1.928283484E-3
2.258706625E0,-2.070937492E-2,1.849770173E-2,1.199536782E-4
2.268728625E0,-1.727730036E-2,1.725845784E-2,1.056040172E-3
2.278750625E0,-1.215737313E-2,9.814388119E-3,4.150100984E-3
2.288772625E0,-1.272224262E-2,4.356090911E-3,3.097725101E-3
2.298794625E0,-1.824031211E-2,3.860742785E-3,3.780559637E-3
2.308816625E0,-2.539533563E-2,-6.269896403E-4,3.696721513E-3
2.318838625E0,-3.807144985E-2,1.682303846E-4,3.172344994E-3
2.328861625E0,-5.155834183E-2,5.914420821E-3,-1.483349828E-3
2.338883625E0,-6.160937622E-2,1.498754416E-2,-4.670887254E-3
2.348905625E0,-6.464291364E-2,1.485898811E-2,-6.141074002E-3
2.358927625E0,-5.556499213E-2,8.439970203E-3,-7.368790917E-3
2.368949625E0,-4.325397313E-2,4.412094131E-3,-9.794218466E-3
2.378971625E0,-3.269880265E-2,-4.465766251E-4,-6.206408143E-3
2.388993625E0,-2.913894132E-2,5.470050499E-3,-7.919720374E-3
2.399015625E0,-2.165945433E-2,5.331033841E-3,-9.154628962E-3
2.409037625E0,-2.087815292E-2,2.145019360E-3,-9.715637192E-3
2.419059625E0,-2.656772919E-2,-3.986110445E-3,-5.566964392E-3
2.429081625E0,-3.285439685E-2,-7.581911981E-3,-1.072358107E-3
2.439103625E0,-3.148606420E-2,-1.138623804E-2,2.701873891E-3
2.449125625E0,-2.935296111E-2,-1.215744857E-2,4.565772135E-3
2.459147625E0,-2.785093710E-2,-2.249797061E-2,-3.001333913E-3
2.469169625E0,-3.203988075E-2,-2.634216845E-2,-9.203552268E-3
2.479191625E0,-3.703543916E-2,-1.844616234E-2,-7.980895229E-3
2.489213625E0,-3.853177279E-2,-1.095356420E-4,-8.946496993E-3
2.499235625E0,-2.850736864E-2,2.210255899E-2,-7.356856950E-3
2.509257625E0,-2.484164387E-2,3.653464466E-2,-3.633190878E-3
2.519279625E0,-1.715895720E-2,2.604259178E-2,-2.826519310E-3
2.529301625E0,-1.569094509E-2,5.758968182E-3,-4.407482687E-3
2.539324042E0,-2.091473527E-2,-1.931176335E-2,-1.020518411E-2
2.549346042E0,-2.633910067E-2,-3.543218225E-2,-1.010352839E-2
2.559368042E0,-2.726641297E-2,-3.228645772E-2,-1.700857282E-2
2.569390042E0,-2.692255937E-2,-1.607442647E-2,-1.833714731E-2
2.579412042E0,-2.118211612E-2,3.071838059E-3,-1.591446996E-2
2.589434042E0,-1.799024083E-2,8.712490089E-3,-1.251239330E-2
2.599457042E0,-1.896495931E-2,2.042602748E-3,-7.480617147E-3
2.609479042E0,-1.861738227E-2,-2.522818744E-3,-3.484210465E-3
2.619501042E0,-1.368760504E-2,4.365979694E-3,3.371565137E-3
2.629523042E0,-9.929697961E-3,1.348009333E-3,1.756732585E-3
2.639545042E0,-1.707842201E-2,-7.480368949E-3,1.577235409E-3
2.649567042E0,-3.040044196E-2,-1.374408510E-2,5.089956103E-4
2.659589042E0,-4.124936089E-2,-1.889556646E-3,3.505051835E-3
2.669611042E0,-4.027340934E-2,3.807514906E-3,5.339640658E-3
2.679633042E0,-3.079441935E-2,-5.672592670E-4,2.998189768E-3
2.689655042E0,-2.652822435E-2,-3.273752984E-3,3.926990554E-3
2.699677042E0,-2.204266191E-2,-4.886829294E-3,-2.431039931E-3
2.709699042E0,-1.859299093E-2,-6.721670274E-3,-7.336427458E-3
2.719721042E0,-2.246735804E-2,-7.987470366E-3,-5.639727227E-3
2.729743042E0,-2.107536234E-2,1.731697470E-3,-1.061564777E-3
2.739765042E0,-2.391029708E-2,2.361702174E-2,-4.220340401E-3
2.749787042E0,-7.234135177E-3,2.394097298E-2,-5.328919739E-3
2.759809042E0,6.077142898E-3,1.394586544E-2,-3.747534705E-3
2.769831042E0,1.457756851E-2,1.156648155E-2,-1.909655984E-3
2.779853042E0,1.380871329E-2,1.548745390E-2,-8.223478682E-3
2.789875042E0,8.267267607E-3,9.591938928E-3,-1.091861259E-2
2.799897042E0,-8.044860326E-3,3.241632134E-3,-1.232156530E-2
2.809919042E0,-2.953784354E-2,-1.338814385E-3,-6.769157015E-3
2.819941042E0,-4.440999776E-2,2.380556427E-3,-5.140634254E-3
2.829963042E0,-4.599284753E-2,1.772462577E-2,-7.785282563E-3
2.839985042E0,-3.164453432E-2,1.692807674E-2,-1.067720912E-2
2.850008042E0,-2.362408675E-2,9.881425649E-3,-8.752130903E-3
2.860030042E0,-1.032585744E-2,6.535429507E-3,-6.792310625E-3
2.870052042E0,-3.571810434E-3,-2.950746566E-3,-8.496460505E-3
2.880074042E0,-3.163814079E-3,-1.635017619E-2,-9.300734848E-3
2.890096042E0,-1.334889047E-2,-2.096684463E-2,-6.000177469E-3
2.900118042E0,-2.015672810E-2,-1.789435558E-2,1.171715092E-3
2.910140042E0,-2.905516885E-2,-1.650460437E-2,2.998898854E-4
2.920162042E0,-2.154798433E-2,-1.781940646E-2,-3.192313015E-3
2.930184042E0,-1.499696355E-2,-2.067507431E-2,-2.478632843E-3
2.940206042E0,-1.179983933E-2,-1.702760905E-2,-1.213897602E-3
2.950228042E0,-1.117126364E-2,-1.461204793E-2,-8.457709919E-5
2.960250042E0,-1.411991473E-2,-1.787788235E-2,1.588358136E-4
2.970272042E0,-1.761932112E-2,-2.027114853E-2,-1.036442118E-4
2.980294042E0,-2.004838921E-2,-1.729400083E-2,4.728395026E-3
2.990316042E0,-1.897888258E-2,-9.551545605E-3,3.922086209E-3
3.000338042E0,-1.182403509E-2,-4.928031005E-3,2.494099084E-3
3.010360042E0,-2.934461692E-3,-6.370058283E-3,9.625318926E-4
3.020382042E0,2.014490543E-3,-9.013245814E-3,-2.394915326E-3
3.030404042E0,2.082982799E-3,-9.555011056E-3,-3.892977023E-3
3.040426042E0,-3.198864404E-3,-4.150924273E-3,-2.274574013E-3
3.050448042E0,-1.405276451E-2,-3.335653339E-3,-1.169885072E-4
3.060470042E0,-1.132009458E-2,-2.065326087E-3,-4.249681719E-3
3.070492042E0,-1.209554262E-2,-4.756790120E-3,-9.028997272E-3
3.080514042E0,-1.111363526E-2,-1.398650743E-2,-6.092329975E-3
3.090536042E0,-1.046102867E-2,-7.794391364E-3,-7.154000923E-3
3.100559042E0,-7.733420003E-3,-4.076352343E-3,-2.214635955E-3
3.110581042E0,-8.673564531E-3,-1.455685124E-4,5.582736805E-3
3.120603042E0,-6.683650892E-3,6.454011425E-3,5.063420627E-3
3.130625042E0,-9.489463991E-4,1.127005555E-3,2.588783158E-3
3.140647042E0,3.960058093E-3,-3.523406573E-3,6.500434130E-3
3.150669042E0,1.140943263E-2,-4.830637481E-3,1.323609031E-3
3.160691042E0,1.815948077E-2,1.580390148E-3,-3.556367476E-3
3.170713042E0,2.530597337E-2,1.232761331E-2,-2.044290304E-3
3.180735042E0,2.573953569E-2,2.951458842E-2,3.201604355E-3
3.190757042E0,2.412131056E-2,3.980002552E-2,1.011539437E-2
3.200779042E0,1.163960900E-2,2.721206099E-2,1.339321304E-2
3.210801042E0,1.079529320E-4,9.658064693E-3,1.391632017E-2
3.220823042E0,-1.646969281E-2,-9.291659109E-3,1.134317368E-2
3.230845042E0,-2.090456523E-2,-2.568292245E-2,6.464042235E-3
3.240867042E0,-1.089134533E-2,-2.378861606E-2,1.116148778E-3
3.250889042E0,3.673448227E-4,-1.168876980E-2,4.854381084E-3
3.260911042E0,8.459892124E-3,4.400717095E-3,6.329239812E-3
